  0
SECTION
  2
HEADER
  9
$ACADVER
  1
AC1014
  9
$HANDSEED
  5
FFFF
  9
$MEASUREMENT
 70
     1
  0
ENDSEC
  0
SECTION
  2
TABLES
  0
TABLE
  2
VPORT
  5
8
330
0
100
AcDbSymbolTable
 70
     4
  0
VPORT
  5
2E
330
8
100
AcDbSymbolTableRecord
100
AcDbViewportTableRecord
  2
*ACTIVE
 70
     0
 10
0.0
 20
0.0
 11
1.0
 21
1.0
 12
210.0
 22
148.5
 13
0.0
 23
0.0
 14
10.0
 24
10.0
 15
10.0
 25
10.0
 16
0.0
 26
0.0
 36
1.0
 17
0.0
 27
0.0
 37
0.0
 40
341.0
 41
1.24
 42
50.0
 43
0.0
 44
0.0
 50
0.0
 51
0.0
 71
     0
 72
   100
 73
     1
 74
     3
 75
     0
 76
     0
 77
     0
 78
     0
  0
ENDTAB
  0
TABLE
  2
LTYPE
  5
5
330
0
100
AcDbSymbolTable
 70
     1
  0
LTYPE
  5
14
330
5
100
AcDbSymbolTableRecord
100
AcDbLinetypeTableRecord
  2
BYBLOCK
 70
     0
  3

 72
    65
 73
     0
 40
0.0
  0
LTYPE
  5
15
330
5
100
AcDbSymbolTableRecord
100
AcDbLinetypeTableRecord
  2
BYLAYER
 70
     0
  3

 72
    65
 73
     0
 40
0.0
  0
LTYPE
  5
16
330
5
100
AcDbSymbolTableRecord
100
AcDbLinetypeTableRecord
  2
CONTINUOUS
 70
     0
  3
Solid line
 72
    65
 73
     0
 40
0.0
  0
ENDTAB
  0
TABLE
  2
LAYER
  5
2
100
AcDbSymbolTable
 70
2
  0
LAYER
  5
50
100
AcDbSymbolTableRecord
100
AcDbLayerTableRecord
  2
0
 70
0
  6
CONTINUOUS
  0
LAYER
  5
51
100
AcDbSymbolTableRecord
100
AcDbLayerTableRecord
  2
Layer_1
 70
0
  6
CONTINUOUS
  0
ENDTAB
  0
TABLE
  2
STYLE
  5
3
330
0
100
AcDbSymbolTable
 70
     1
  0
STYLE
  5
11
330
3
100
AcDbSymbolTableRecord
100
AcDbTextStyleTableRecord
  2
STANDARD
 70
     0
 40
0.0
 41
1.0
 50
0.0
 71
     0
 42
2.5
  3
txt
  4

  0
ENDTAB
  0
TABLE
  2
VIEW
  5
6
330
0
100
AcDbSymbolTable
 70
     0
  0
ENDTAB
  0
TABLE
  2
UCS
  5
7
330
0
100
AcDbSymbolTable
 70
     0
  0
ENDTAB
  0
TABLE
  2
APPID
  5
9
330
0
100
AcDbSymbolTable
 70
     2
  0
APPID
  5
12
330
9
100
AcDbSymbolTableRecord
100
AcDbRegAppTableRecord
  2
ACAD
 70
     0
  0
ENDTAB
  0
TABLE
  2
DIMSTYLE
  5
A
330
0
100
AcDbSymbolTable
 70
     1
  0
DIMSTYLE
105
27
330
A
100
AcDbSymbolTableRecord
100
AcDbDimStyleTableRecord
  2
ISO-25
 70
     0
  3

  4

  5

  6

  7

 40
1.0
 41
2.5
 42
0.625
 43
3.75
 44
1.25
 45
0.0
 46
0.0
 47
0.0
 48
0.0
140
2.5
141
2.5
142
0.0
143
0.03937007874016
144
1.0
145
0.0
146
1.0
147
0.625
 71
     0
 72
     0
 73
     0
 74
     0
 75
     0
 76
     0
 77
     1
 78
     8
170
     0
171
     3
172
     1
173
     0
174
     0
175
     0
176
     0
177
     0
178
     0
270
     2
271
     2
272
     2
273
     2
274
     3
340
11
275
     0
280
     0
281
     0
282
     0
283
     0
284
     8
285
     0
286
     0
287
     3
288
     0
  0
ENDTAB
  0
TABLE
  2
BLOCK_RECORD
  5
1
330
0
100
AcDbSymbolTable
 70
     1
  0
BLOCK_RECORD
  5
1F
330
1
100
AcDbSymbolTableRecord
100
AcDbBlockTableRecord
  2
*MODEL_SPACE
  0
BLOCK_RECORD
  5
1B
330
1
100
AcDbSymbolTableRecord
100
AcDbBlockTableRecord
  2
*PAPER_SPACE
  0
ENDTAB
  0
ENDSEC
  0
SECTION
  2
BLOCKS
  0
BLOCK
  5
20
330
1F
100
AcDbEntity
  8
0
100
AcDbBlockBegin
  2
*MODEL_SPACE
 70
     0
 10
0.0
 20
0.0
 30
0.0
  3
*MODEL_SPACE
  1

  0
ENDBLK
  5
21
330
1F
100
AcDbEntity
  8
0
100
AcDbBlockEnd
  0
BLOCK
  5
1C
330
1B
100
AcDbEntity
 67
     1
  8
0
100
AcDbBlockBegin
  2
*PAPER_SPACE
  1

  0
ENDBLK
  5
1D
330
1B
100
AcDbEntity
 67
     1
  8
0
100
AcDbBlockEnd
  0
ENDSEC
  0
SECTION
  2
ENTITIES
  0
LWPOLYLINE
  5
100
100
AcDbEntity
  8
Layer_1
 62
7
100
AcDbPolyline
 90
28
 70
1
 10
242.857144
 20
730.285716
 30
0.0
 10
215.428568
 20
728.571428
 30
0.0
 10
149.714288
 20
698.285716
 30
0.0
 10
127.428568
 20
669.142860
 30
0.0
 10
118.857144
 20
634.857140
 30
0.0
 10
138.857144
 20
580.000004
 30
0.0
 10
139.428568
 20
572.000004
 30
0.0
 10
153.714288
 20
549.142860
 30
0.0
 10
182.857144
 20
524.571428
 30
0.0
 10
185.142856
 20
511.428572
 30
0.0
 10
192.571432
 20
495.428572
 30
0.0
 10
198.857144
 20
466.285716
 30
0.0
 10
211.428568
 20
472.000004
 30
0.0
 10
219.428568
 20
472.571428
 30
0.0
 10
244.000000
 20
463.428572
 30
0.0
 10
294.285712
 20
478.857140
 30
0.0
 10
306.285712
 20
488.000004
 30
0.0
 10
321.714288
 20
502.285716
 30
0.0
 10
345.142856
 20
512.571428
 30
0.0
 10
364.571432
 20
512.000004
 30
0.0
 10
388.571432
 20
518.285716
 30
0.0
 10
412.571432
 20
532.571428
 30
0.0
 10
402.285712
 20
546.285716
 30
0.0
 10
384.000000
 20
559.428572
 30
0.0
 10
314.857144
 20
576.571428
 30
0.0
 10
308.571432
 20
597.142860
 30
0.0
 10
284.000000
 20
619.428572
 30
0.0
 10
242.857144
 20
730.285716
 30
0.0
  0
LWPOLYLINE
  5
101
100
AcDbEntity
  8
Layer_1
 62
7
100
AcDbPolyline
 90
44
 70
1
 10
198.285712
 20
466.285716
 30
0.0
 10
176.571432
 20
455.428572
 30
0.0
 10
154.857144
 20
452.000004
 30
0.0
 10
125.714288
 20
450.857140
 30
0.0
 10
108.571432
 20
445.714284
 30
0.0
 10
55.428571
 20
412.571428
 30
0.0
 10
16.000000
 20
381.142860
 30
0.0
 10
-37.142857
 20
360.000004
 30
0.0
 10
-44.571429
 20
373.714284
 30
0.0
 10
-118.285712
 20
388.000004
 30
0.0
 10
-81.142856
 20
425.714284
 30
0.0
 10
-69.714286
 20
434.857140
 30
0.0
 10
-47.428571
 20
438.285716
 30
0.0
 10
-37.714286
 20
443.428572
 30
0.0
 10
-37.142857
 20
450.857140
 30
0.0
 10
-44.571429
 20
461.714284
 30
0.0
 10
-25.714286
 20
471.428572
 30
0.0
 10
-22.285714
 20
471.428572
 30
0.0
 10
-22.857143
 20
477.142860
 30
0.0
 10
-41.714286
 20
489.714284
 30
0.0
 10
-41.714286
 20
493.142860
 30
0.0
 10
-36.000000
 20
499.428572
 30
0.0
 10
-31.428571
 20
504.000004
 30
0.0
 10
-30.857143
 20
508.571428
 30
0.0
 10
-35.428571
 20
529.714284
 30
0.0
 10
-42.857143
 20
542.285716
 30
0.0
 10
-64.571429
 20
551.428572
 30
0.0
 10
-70.857143
 20
575.428572
 30
0.0
 10
-69.714286
 20
597.714284
 30
0.0
 10
-60.000000
 20
618.285716
 30
0.0
 10
-43.428571
 20
629.714284
 30
0.0
 10
-2.857143
 20
629.714284
 30
0.0
 10
22.285714
 20
662.285716
 30
0.0
 10
46.285714
 20
662.285716
 30
0.0
 10
81.714288
 20
624.571428
 30
0.0
 10
110.857144
 20
625.142860
 30
0.0
 10
119.428568
 20
636.571428
 30
0.0
 10
141.142856
 20
576.571428
 30
0.0
 10
140.000000
 20
571.428572
 30
0.0
 10
156.571432
 20
545.714284
 30
0.0
 10
183.428568
 20
524.571428
 30
0.0
 10
186.285712
 20
509.714284
 30
0.0
 10
192.571432
 20
497.142860
 30
0.0
 10
198.285712
 20
466.285716
 30
0.0
  0
LWPOLYLINE
  5
102
100
AcDbEntity
  8
Layer_1
 62
7
100
AcDbPolyline
 90
31
 70
1
 10
-117.142856
 20
388.571428
 30
0.0
 10
-45.142857
 20
373.714284
 30
0.0
 10
-36.571429
 20
358.857140
 30
0.0
 10
-38.285714
 20
349.142860
 30
0.0
 10
-9.142857
 20
300.571428
 30
0.0
 10
10.285714
 20
284.000004
 30
0.0
 10
32.000000
 20
278.857140
 30
0.0
 10
45.142857
 20
270.857140
 30
0.0
 10
60.000000
 20
250.857140
 30
0.0
 10
52.571429
 20
234.857140
 30
0.0
 10
-5.142857
 20
208.000004
 30
0.0
 10
-99.428568
 20
190.285716
 30
0.0
 10
-107.428568
 20
191.428572
 30
0.0
 10
-116.571432
 20
196.571428
 30
0.0
 10
-127.428568
 20
198.857140
 30
0.0
 10
-145.714288
 20
197.142860
 30
0.0
 10
-152.000000
 20
194.285716
 30
0.0
 10
-154.285712
 20
202.857140
 30
0.0
 10
-168.000000
 20
214.857140
 30
0.0
 10
-183.428568
 20
224.000004
 30
0.0
 10
-202.285712
 20
248.571428
 30
0.0
 10
-149.142856
 20
254.857140
 30
0.0
 10
-114.285712
 20
269.142860
 30
0.0
 10
-71.428571
 20
280.571428
 30
0.0
 10
-86.285712
 20
306.857140
 30
0.0
 10
-94.857144
 20
318.857140
 30
0.0
 10
-99.428568
 20
330.857140
 30
0.0
 10
-124.571432
 20
356.000004
 30
0.0
 10
-136.000000
 20
364.571428
 30
0.0
 10
-150.285712
 20
368.000004
 30
0.0
 10
-117.142856
 20
388.571428
 30
0.0
  0
LWPOLYLINE
  5
103
100
AcDbEntity
  8
Layer_1
 62
7
100
AcDbPolyline
 90
15
 70
1
 10
-115.142856
 20
269.428572
 30
0.0
 10
-71.142858
 20
281.142860
 30
0.0
 10
-86.857144
 20
307.714284
 30
0.0
 10
-94.571432
 20
318.285716
 30
0.0
 10
-100.000000
 20
331.142860
 30
0.0
 10
-122.571432
 20
354.000004
 30
0.0
 10
-135.142856
 20
364.000004
 30
0.0
 10
-150.571432
 20
368.571428
 30
0.0
 10
-166.857144
 20
350.857140
 30
0.0
 10
-192.000000
 20
347.428572
 30
0.0
 10
-167.142856
 20
328.285716
 30
0.0
 10
-130.857144
 20
284.000004
 30
0.0
 10
-117.714288
 20
286.857140
 30
0.0
 10
-110.857144
 20
278.571428
 30
0.0
 10
-115.142856
 20
269.428572
 30
0.0
  0
LWPOLYLINE
  5
104
100
AcDbEntity
  8
Layer_1
 62
7
100
AcDbPolyline
 90
13
 70
1
 10
-112.000000
 20
278.857140
 30
0.0
 10
-116.000000
 20
268.285716
 30
0.0
 10
-149.142856
 20
254.857140
 30
0.0
 10
-201.714288
 20
248.285716
 30
0.0
 10
-222.857144
 20
300.000004
 30
0.0
 10
-223.142856
 20
322.000004
 30
0.0
 10
-217.428568
 20
332.000004
 30
0.0
 10
-219.714288
 20
337.142860
 30
0.0
 10
-192.571432
 20
347.714284
 30
0.0
 10
-170.285712
 20
330.000004
 30
0.0
 10
-130.857144
 20
283.142860
 30
0.0
 10
-117.714288
 20
286.000004
 30
0.0
 10
-112.000000
 20
278.857140
 30
0.0
  0
LWPOLYLINE
  5
105
100
AcDbEntity
  8
Layer_1
 62
7
100
AcDbPolyline
 90
28
 70
1
 10
-138.571432
 20
550.000004
 30
0.0
 10
-116.857144
 20
556.857140
 30
0.0
 10
-104.571432
 20
562.000004
 30
0.0
 10
-80.285712
 20
545.142860
 30
0.0
 10
-64.571429
 20
551.142860
 30
0.0
 10
-42.285714
 20
542.000004
 30
0.0
 10
-35.714286
 20
531.142860
 30
0.0
 10
-30.857143
 20
508.000004
 30
0.0
 10
-31.714286
 20
503.428572
 30
0.0
 10
-41.142858
 20
494.285716
 30
0.0
 10
-42.000000
 20
490.285716
 30
0.0
 10
-22.571429
 20
476.857140
 30
0.0
 10
-22.285714
 20
471.428572
 30
0.0
 10
-24.857143
 20
471.428572
 30
0.0
 10
-44.285714
 20
461.428572
 30
0.0
 10
-37.714286
 20
451.142860
 30
0.0
 10
-38.000000
 20
443.714284
 30
0.0
 10
-47.142858
 20
438.571428
 30
0.0
 10
-69.714286
 20
435.428572
 30
0.0
 10
-85.714288
 20
420.857140
 30
0.0
 10
-93.714288
 20
413.428572
 30
0.0
 10
-144.000000
 20
426.857140
 30
0.0
 10
-164.000000
 20
427.428572
 30
0.0
 10
-181.714288
 20
446.285716
 30
0.0
 10
-181.714288
 20
456.571428
 30
0.0
 10
-159.428568
 20
484.571428
 30
0.0
 10
-140.857144
 20
519.142860
 30
0.0
 10
-138.571432
 20
550.000004
 30
0.0
  0
ENDSEC
  0
SECTION
  2
OBJECTS
  0
DICTIONARY
  5
C
330
0
100
AcDbDictionary
  3
ACAD_GROUP
350
D
  3
ACAD_MLINESTYLE
350
17
  0
DICTIONARY
  5
D
330
C
100
AcDbDictionary
  0
DICTIONARY
  5
1A
330
C
100
AcDbDictionary
  0
DICTIONARY
  5
17
330
C
100
AcDbDictionary
  3
STANDARD
350
18
  0
DICTIONARY
  5
19
330
C
100
AcDbDictionary
  0
ENDSEC
  0
EOF
