  0
SECTION
  2
HEADER
  9
$ACADVER
  1
AC1014
  9
$HANDSEED
  5
FFFF
  9
$MEASUREMENT
 70
     1
  0
ENDSEC
  0
SECTION
  2
TABLES
  0
TABLE
  2
VPORT
  5
8
330
0
100
AcDbSymbolTable
 70
     4
  0
VPORT
  5
2E
330
8
100
AcDbSymbolTableRecord
100
AcDbViewportTableRecord
  2
*ACTIVE
 70
     0
 10
0.0
 20
0.0
 11
1.0
 21
1.0
 12
210.0
 22
148.5
 13
0.0
 23
0.0
 14
10.0
 24
10.0
 15
10.0
 25
10.0
 16
0.0
 26
0.0
 36
1.0
 17
0.0
 27
0.0
 37
0.0
 40
341.0
 41
1.24
 42
50.0
 43
0.0
 44
0.0
 50
0.0
 51
0.0
 71
     0
 72
   100
 73
     1
 74
     3
 75
     0
 76
     0
 77
     0
 78
     0
  0
ENDTAB
  0
TABLE
  2
LTYPE
  5
5
330
0
100
AcDbSymbolTable
 70
     1
  0
LTYPE
  5
14
330
5
100
AcDbSymbolTableRecord
100
AcDbLinetypeTableRecord
  2
BYBLOCK
 70
     0
  3

 72
    65
 73
     0
 40
0.0
  0
LTYPE
  5
15
330
5
100
AcDbSymbolTableRecord
100
AcDbLinetypeTableRecord
  2
BYLAYER
 70
     0
  3

 72
    65
 73
     0
 40
0.0
  0
LTYPE
  5
16
330
5
100
AcDbSymbolTableRecord
100
AcDbLinetypeTableRecord
  2
CONTINUOUS
 70
     0
  3
Solid line
 72
    65
 73
     0
 40
0.0
  0
ENDTAB
  0
TABLE
  2
LAYER
  5
2
100
AcDbSymbolTable
 70
2
  0
LAYER
  5
50
100
AcDbSymbolTableRecord
100
AcDbLayerTableRecord
  2
0
 70
0
  6
CONTINUOUS
  0
LAYER
  5
51
100
AcDbSymbolTableRecord
100
AcDbLayerTableRecord
  2
Layer_1
 70
0
  6
CONTINUOUS
  0
ENDTAB
  0
TABLE
  2
STYLE
  5
3
330
0
100
AcDbSymbolTable
 70
     1
  0
STYLE
  5
11
330
3
100
AcDbSymbolTableRecord
100
AcDbTextStyleTableRecord
  2
STANDARD
 70
     0
 40
0.0
 41
1.0
 50
0.0
 71
     0
 42
2.5
  3
txt
  4

  0
ENDTAB
  0
TABLE
  2
VIEW
  5
6
330
0
100
AcDbSymbolTable
 70
     0
  0
ENDTAB
  0
TABLE
  2
UCS
  5
7
330
0
100
AcDbSymbolTable
 70
     0
  0
ENDTAB
  0
TABLE
  2
APPID
  5
9
330
0
100
AcDbSymbolTable
 70
     2
  0
APPID
  5
12
330
9
100
AcDbSymbolTableRecord
100
AcDbRegAppTableRecord
  2
ACAD
 70
     0
  0
ENDTAB
  0
TABLE
  2
DIMSTYLE
  5
A
330
0
100
AcDbSymbolTable
 70
     1
  0
DIMSTYLE
105
27
330
A
100
AcDbSymbolTableRecord
100
AcDbDimStyleTableRecord
  2
ISO-25
 70
     0
  3

  4

  5

  6

  7

 40
1.0
 41
2.5
 42
0.625
 43
3.75
 44
1.25
 45
0.0
 46
0.0
 47
0.0
 48
0.0
140
2.5
141
2.5
142
0.0
143
0.03937007874016
144
1.0
145
0.0
146
1.0
147
0.625
 71
     0
 72
     0
 73
     0
 74
     0
 75
     0
 76
     0
 77
     1
 78
     8
170
     0
171
     3
172
     1
173
     0
174
     0
175
     0
176
     0
177
     0
178
     0
270
     2
271
     2
272
     2
273
     2
274
     3
340
11
275
     0
280
     0
281
     0
282
     0
283
     0
284
     8
285
     0
286
     0
287
     3
288
     0
  0
ENDTAB
  0
TABLE
  2
BLOCK_RECORD
  5
1
330
0
100
AcDbSymbolTable
 70
     1
  0
BLOCK_RECORD
  5
1F
330
1
100
AcDbSymbolTableRecord
100
AcDbBlockTableRecord
  2
*MODEL_SPACE
  0
BLOCK_RECORD
  5
1B
330
1
100
AcDbSymbolTableRecord
100
AcDbBlockTableRecord
  2
*PAPER_SPACE
  0
ENDTAB
  0
ENDSEC
  0
SECTION
  2
BLOCKS
  0
BLOCK
  5
20
330
1F
100
AcDbEntity
  8
0
100
AcDbBlockBegin
  2
*MODEL_SPACE
 70
     0
 10
0.0
 20
0.0
 30
0.0
  3
*MODEL_SPACE
  1

  0
ENDBLK
  5
21
330
1F
100
AcDbEntity
  8
0
100
AcDbBlockEnd
  0
BLOCK
  5
1C
330
1B
100
AcDbEntity
 67
     1
  8
0
100
AcDbBlockBegin
  2
*PAPER_SPACE
  1

  0
ENDBLK
  5
1D
330
1B
100
AcDbEntity
 67
     1
  8
0
100
AcDbBlockEnd
  0
ENDSEC
  0
SECTION
  2
ENTITIES
  0
LWPOLYLINE
  5
100
100
AcDbEntity
  8
Layer_1
 62
7
100
AcDbPolyline
 90
21
 70
1
 10
21.714286
 20
683.428572
 30
0.0
 10
17.142857
 20
658.857140
 30
0.0
 10
18.285714
 20
621.714284
 30
0.0
 10
22.857143
 20
605.142860
 30
0.0
 10
16.000000
 20
577.142860
 30
0.0
 10
11.428571
 20
526.857140
 30
0.0
 10
-3.428571
 20
527.428572
 30
0.0
 10
-14.285714
 20
521.142860
 30
0.0
 10
-31.428571
 20
521.142860
 30
0.0
 10
-49.142857
 20
525.142860
 30
0.0
 10
-63.428571
 20
562.285716
 30
0.0
 10
-82.285712
 20
579.428572
 30
0.0
 10
-85.142856
 20
603.428572
 30
0.0
 10
-88.000000
 20
618.285716
 30
0.0
 10
-101.142856
 20
632.571428
 30
0.0
 10
-84.000000
 20
658.285716
 30
0.0
 10
-77.142858
 20
681.142860
 30
0.0
 10
-43.428571
 20
693.714284
 30
0.0
 10
-17.714286
 20
698.285716
 30
0.0
 10
-3.428571
 20
697.142860
 30
0.0
 10
21.714286
 20
683.428572
 30
0.0
  0
LWPOLYLINE
  5
101
100
AcDbEntity
  8
Layer_1
 62
7
100
AcDbPolyline
 90
33
 70
1
 10
10.857143
 20
526.857140
 30
0.0
 10
13.142857
 20
519.428572
 30
0.0
 10
4.571429
 20
493.142860
 30
0.0
 10
-12.000000
 20
477.714284
 30
0.0
 10
-12.000000
 20
466.857140
 30
0.0
 10
-40.571429
 20
452.000004
 30
0.0
 10
-69.714286
 20
455.428572
 30
0.0
 10
-78.285714
 20
458.857140
 30
0.0
 10
-86.857144
 20
472.000004
 30
0.0
 10
-97.142856
 20
473.714284
 30
0.0
 10
-120.000000
 20
462.857140
 30
0.0
 10
-120.571432
 20
450.857140
 30
0.0
 10
-101.142856
 20
421.142860
 30
0.0
 10
-97.142856
 20
395.428572
 30
0.0
 10
-106.857144
 20
384.571428
 30
0.0
 10
-129.714288
 20
401.142860
 30
0.0
 10
-140.571432
 20
423.428572
 30
0.0
 10
-173.142856
 20
433.142860
 30
0.0
 10
-188.000000
 20
432.000004
 30
0.0
 10
-181.142856
 20
470.857140
 30
0.0
 10
-156.000000
 20
568.000004
 30
0.0
 10
-132.000000
 20
590.857140
 30
0.0
 10
-101.714288
 20
631.428572
 30
0.0
 10
-87.428568
 20
617.142860
 30
0.0
 10
-84.571432
 20
597.714284
 30
0.0
 10
-83.428568
 20
584.000004
 30
0.0
 10
-78.285714
 20
575.428572
 30
0.0
 10
-62.857143
 20
562.857140
 30
0.0
 10
-49.714286
 20
525.714284
 30
0.0
 10
-32.000000
 20
521.142860
 30
0.0
 10
-15.428571
 20
521.142860
 30
0.0
 10
-5.714286
 20
526.285716
 30
0.0
 10
10.857143
 20
526.857140
 30
0.0
  0
LWPOLYLINE
  5
102
100
AcDbEntity
  8
Layer_1
 62
7
100
AcDbPolyline
 90
23
 70
1
 10
-106.857144
 20
384.571428
 30
0.0
 10
-118.285712
 20
361.714284
 30
0.0
 10
-116.571432
 20
347.428572
 30
0.0
 10
-106.285712
 20
338.285716
 30
0.0
 10
-108.571432
 20
331.428572
 30
0.0
 10
-115.428568
 20
321.142860
 30
0.0
 10
-122.857144
 20
306.285716
 30
0.0
 10
-124.000000
 20
280.000004
 30
0.0
 10
-137.142856
 20
269.142860
 30
0.0
 10
-141.142856
 20
244.571428
 30
0.0
 10
-168.571432
 20
234.285716
 30
0.0
 10
-193.714288
 20
234.285716
 30
0.0
 10
-209.714288
 20
246.285716
 30
0.0
 10
-217.142856
 20
297.714284
 30
0.0
 10
-197.142856
 20
329.714284
 30
0.0
 10
-173.714288
 20
383.428572
 30
0.0
 10
-188.000000
 20
409.142860
 30
0.0
 10
-187.428568
 20
432.571428
 30
0.0
 10
-171.142856
 20
433.714284
 30
0.0
 10
-167.428568
 20
431.142860
 30
0.0
 10
-139.714288
 20
423.428572
 30
0.0
 10
-129.428568
 20
401.142860
 30
0.0
 10
-106.857144
 20
384.571428
 30
0.0
  0
LWPOLYLINE
  5
103
100
AcDbEntity
  8
Layer_1
 62
7
100
AcDbPolyline
 90
54
 70
1
 10
-140.000000
 20
244.857140
 30
0.0
 10
-125.714288
 20
248.000004
 30
0.0
 10
-120.000000
 20
256.285716
 30
0.0
 10
-111.428568
 20
257.142860
 30
0.0
 10
-103.714288
 20
248.571428
 30
0.0
 10
-95.142856
 20
244.857140
 30
0.0
 10
-87.142856
 20
246.857140
 30
0.0
 10
-82.571432
 20
266.000004
 30
0.0
 10
-79.714286
 20
268.857140
 30
0.0
 10
-72.285714
 20
270.571428
 30
0.0
 10
-63.714286
 20
267.142860
 30
0.0
 10
-48.285714
 20
276.857140
 30
0.0
 10
-37.714286
 20
276.285716
 30
0.0
 10
-28.000000
 20
268.857140
 30
0.0
 10
-22.857143
 20
266.000004
 30
0.0
 10
-16.000000
 20
257.142860
 30
0.0
 10
-14.571429
 20
249.142860
 30
0.0
 10
-8.857143
 20
246.571428
 30
0.0
 10
21.714286
 20
242.857140
 30
0.0
 10
47.714286
 20
277.714284
 30
0.0
 10
55.428571
 20
285.428572
 30
0.0
 10
65.428571
 20
307.142860
 30
0.0
 10
65.428571
 20
322.571428
 30
0.0
 10
71.714286
 20
351.428572
 30
0.0
 10
58.285714
 20
354.285716
 30
0.0
 10
38.000000
 20
370.857140
 30
0.0
 10
35.428571
 20
385.142860
 30
0.0
 10
35.142857
 20
394.857140
 30
0.0
 10
38.571429
 20
404.000004
 30
0.0
 10
19.142857
 20
408.857140
 30
0.0
 10
3.428571
 20
420.571428
 30
0.0
 10
-1.428571
 20
431.142860
 30
0.0
 10
1.714286
 20
448.857140
 30
0.0
 10
4.571429
 20
462.857140
 30
0.0
 10
4.285714
 20
466.857140
 30
0.0
 10
-4.571429
 20
468.857140
 30
0.0
 10
-12.000000
 20
467.428572
 30
0.0
 10
-38.571429
 20
452.285716
 30
0.0
 10
-76.857143
 20
457.428572
 30
0.0
 10
-87.142856
 20
471.714284
 30
0.0
 10
-98.857144
 20
473.142860
 30
0.0
 10
-119.428568
 20
463.142860
 30
0.0
 10
-120.285712
 20
449.714284
 30
0.0
 10
-100.857144
 20
420.285716
 30
0.0
 10
-97.142856
 20
395.714284
 30
0.0
 10
-106.000000
 20
385.428572
 30
0.0
 10
-118.000000
 20
361.714284
 30
0.0
 10
-116.000000
 20
346.571428
 30
0.0
 10
-106.571432
 20
337.428572
 30
0.0
 10
-123.142856
 20
306.285716
 30
0.0
 10
-123.714288
 20
278.857140
 30
0.0
 10
-136.285712
 20
270.285716
 30
0.0
 10
-137.714288
 20
264.857140
 30
0.0
 10
-140.000000
 20
244.857140
 30
0.0
  0
LWPOLYLINE
  5
104
100
AcDbEntity
  8
Layer_1
 62
7
100
AcDbPolyline
 90
25
 70
1
 10
-125.428568
 20
248.000004
 30
0.0
 10
-116.000000
 20
247.714284
 30
0.0
 10
-100.000000
 20
237.428572
 30
0.0
 10
-85.428568
 20
222.857140
 30
0.0
 10
-72.857143
 20
205.142860
 30
0.0
 10
-39.142858
 20
229.142860
 30
0.0
 10
-21.714286
 20
245.142860
 30
0.0
 10
-10.000000
 20
228.000004
 30
0.0
 10
2.857143
 20
245.142860
 30
0.0
 10
-14.000000
 20
248.000004
 30
0.0
 10
-15.428571
 20
256.857140
 30
0.0
 10
-23.142857
 20
266.000004
 30
0.0
 10
-27.714286
 20
267.714284
 30
0.0
 10
-37.142858
 20
275.142860
 30
0.0
 10
-48.857143
 20
276.285716
 30
0.0
 10
-63.428571
 20
266.857140
 30
0.0
 10
-70.571429
 20
269.714284
 30
0.0
 10
-74.571429
 20
270.000004
 30
0.0
 10
-80.857144
 20
268.285716
 30
0.0
 10
-87.714288
 20
246.857140
 30
0.0
 10
-96.285712
 20
245.428572
 30
0.0
 10
-105.142856
 20
248.857140
 30
0.0
 10
-110.571432
 20
256.857140
 30
0.0
 10
-119.714288
 20
256.000004
 30
0.0
 10
-125.428568
 20
248.000004
 30
0.0
  0
LWPOLYLINE
  5
105
100
AcDbEntity
  8
Layer_1
 62
7
100
AcDbPolyline
 90
31
 70
1
 10
-10.285714
 20
227.428572
 30
0.0
 10
-7.142857
 20
207.714284
 30
0.0
 10
-4.000000
 20
196.000004
 30
0.0
 10
0.857143
 20
188.857140
 30
0.0
 10
7.714286
 20
187.714284
 30
0.0
 10
22.000000
 20
194.285716
 30
0.0
 10
32.285714
 20
210.857140
 30
0.0
 10
44.857143
 20
220.285716
 30
0.0
 10
66.857143
 20
230.285716
 30
0.0
 10
156.571432
 20
248.571428
 30
0.0
 10
176.571432
 20
250.000004
 30
0.0
 10
183.714288
 20
255.714284
 30
0.0
 10
187.142856
 20
263.714284
 30
0.0
 10
185.714288
 20
295.428572
 30
0.0
 10
170.857144
 20
305.714284
 30
0.0
 10
148.857144
 20
317.428572
 30
0.0
 10
139.142856
 20
319.428572
 30
0.0
 10
130.857144
 20
324.571428
 30
0.0
 10
127.714288
 20
330.857140
 30
0.0
 10
126.857144
 20
342.857140
 30
0.0
 10
116.571432
 20
347.428572
 30
0.0
 10
92.571432
 20
352.857140
 30
0.0
 10
83.142856
 20
353.714284
 30
0.0
 10
71.428571
 20
351.142860
 30
0.0
 10
65.428571
 20
321.428572
 30
0.0
 10
65.714286
 20
306.000004
 30
0.0
 10
55.714286
 20
285.714284
 30
0.0
 10
47.142858
 20
277.428572
 30
0.0
 10
22.000000
 20
242.857140
 30
0.0
 10
2.285714
 20
244.571428
 30
0.0
 10
-10.285714
 20
227.428572
 30
0.0
  0
LWPOLYLINE
  5
106
100
AcDbEntity
  8
Layer_1
 62
7
100
AcDbPolyline
 90
20
 70
1
 10
127.714288
 20
343.142860
 30
0.0
 10
126.285712
 20
363.142860
 30
0.0
 10
140.571432
 20
374.571428
 30
0.0
 10
149.428568
 20
380.571428
 30
0.0
 10
134.857144
 20
384.571428
 30
0.0
 10
126.571432
 20
395.428572
 30
0.0
 10
103.428568
 20
397.428572
 30
0.0
 10
87.142856
 20
398.857140
 30
0.0
 10
68.000000
 20
396.285716
 30
0.0
 10
56.000000
 20
396.571428
 30
0.0
 10
44.571429
 20
402.000004
 30
0.0
 10
39.428571
 20
403.142860
 30
0.0
 10
34.857143
 20
394.285716
 30
0.0
 10
38.000000
 20
370.285716
 30
0.0
 10
57.428571
 20
354.857140
 30
0.0
 10
73.142858
 20
350.857140
 30
0.0
 10
84.857144
 20
353.428572
 30
0.0
 10
105.428568
 20
350.857140
 30
0.0
 10
128.857144
 20
342.571428
 30
0.0
 10
127.714288
 20
343.142860
 30
0.0
  0
LWPOLYLINE
  5
107
100
AcDbEntity
  8
Layer_1
 62
7
100
AcDbPolyline
 90
20
 70
1
 10
150.000000
 20
380.571428
 30
0.0
 10
156.571432
 20
389.428572
 30
0.0
 10
173.714288
 20
412.000004
 30
0.0
 10
196.285712
 20
463.428572
 30
0.0
 10
205.714288
 20
487.142860
 30
0.0
 10
188.000000
 20
493.142860
 30
0.0
 10
138.000000
 20
502.000004
 30
0.0
 10
95.142856
 20
504.285716
 30
0.0
 10
81.142856
 20
498.857140
 30
0.0
 10
71.142858
 20
487.142860
 30
0.0
 10
67.142858
 20
452.000004
 30
0.0
 10
49.428571
 20
436.571428
 30
0.0
 10
15.714286
 20
422.000004
 30
0.0
 10
8.285714
 20
416.571428
 30
0.0
 10
19.428571
 20
408.000004
 30
0.0
 10
55.714286
 20
397.142860
 30
0.0
 10
86.857144
 20
398.571428
 30
0.0
 10
127.428568
 20
394.857140
 30
0.0
 10
134.571432
 20
385.428572
 30
0.0
 10
150.000000
 20
380.571428
 30
0.0
  0
LWPOLYLINE
  5
108
100
AcDbEntity
  8
Layer_1
 62
7
100
AcDbPolyline
 90
22
 70
1
 10
9.428571
 20
417.714284
 30
0.0
 10
19.714286
 20
423.428572
 30
0.0
 10
50.571429
 20
436.857140
 30
0.0
 10
67.714286
 20
452.285716
 30
0.0
 10
70.571429
 20
487.428572
 30
0.0
 10
82.857144
 20
500.000004
 30
0.0
 10
96.571432
 20
504.571428
 30
0.0
 10
89.428568
 20
515.428572
 30
0.0
 10
81.714288
 20
519.428572
 30
0.0
 10
65.714286
 20
520.285716
 30
0.0
 10
56.857143
 20
515.428572
 30
0.0
 10
25.428571
 20
516.000004
 30
0.0
 10
12.571429
 20
522.000004
 30
0.0
 10
4.571429
 20
493.142860
 30
0.0
 10
-11.714286
 20
477.714284
 30
0.0
 10
-11.428571
 20
467.142860
 30
0.0
 10
-2.571429
 20
468.285716
 30
0.0
 10
4.857143
 20
465.714284
 30
0.0
 10
-1.142857
 20
432.571428
 30
0.0
 10
3.428571
 20
420.285716
 30
0.0
 10
10.285714
 20
416.000004
 30
0.0
 10
9.428571
 20
417.714284
 30
0.0
  0
LWPOLYLINE
  5
109
100
AcDbEntity
  8
Layer_1
 62
7
100
AcDbPolyline
 90
31
 70
1
 10
22.285714
 20
682.857148
 30
0.0
 10
88.000000
 20
688.857148
 30
0.0
 10
88.571432
 20
682.285716
 30
0.0
 10
83.142856
 20
670.857148
 30
0.0
 10
68.285714
 20
659.428572
 30
0.0
 10
64.285714
 20
654.000004
 30
0.0
 10
59.714286
 20
644.000004
 30
0.0
 10
64.571429
 20
637.714284
 30
0.0
 10
89.714288
 20
642.000004
 30
0.0
 10
108.000000
 20
640.571428
 30
0.0
 10
135.428568
 20
634.571428
 30
0.0
 10
210.857144
 20
600.571428
 30
0.0
 10
227.142856
 20
584.857148
 30
0.0
 10
229.714288
 20
575.428572
 30
0.0
 10
229.428568
 20
559.714284
 30
0.0
 10
205.714288
 20
487.142860
 30
0.0
 10
185.714288
 20
494.000004
 30
0.0
 10
137.428568
 20
502.571428
 30
0.0
 10
96.571432
 20
504.571428
 30
0.0
 10
90.000000
 20
514.857140
 30
0.0
 10
81.428568
 20
519.714284
 30
0.0
 10
65.142858
 20
520.857140
 30
0.0
 10
58.000000
 20
516.000004
 30
0.0
 10
24.285714
 20
516.285716
 30
0.0
 10
13.142857
 20
520.857140
 30
0.0
 10
10.285714
 20
526.571428
 30
0.0
 10
16.000000
 20
577.714284
 30
0.0
 10
23.142857
 20
604.857148
 30
0.0
 10
18.000000
 20
620.571428
 30
0.0
 10
16.571429
 20
660.000004
 30
0.0
 10
22.285714
 20
682.857148
 30
0.0
  0
ENDSEC
  0
SECTION
  2
OBJECTS
  0
DICTIONARY
  5
C
330
0
100
AcDbDictionary
  3
ACAD_GROUP
350
D
  3
ACAD_MLINESTYLE
350
17
  0
DICTIONARY
  5
D
330
C
100
AcDbDictionary
  0
DICTIONARY
  5
1A
330
C
100
AcDbDictionary
  0
DICTIONARY
  5
17
330
C
100
AcDbDictionary
  3
STANDARD
350
18
  0
DICTIONARY
  5
19
330
C
100
AcDbDictionary
  0
ENDSEC
  0
EOF
